time (s)	magX	magY	magZ
4830.033520	219.851547	-157.434235	258.537109
4830.036879	217.747528	-157.434235	252.108124
4830.040180	215.585037	-155.914673	245.036224
4830.043520	213.656342	-155.914673	239.191681
4830.046857	211.493866	-155.505539	232.762726
4830.050204	209.097610	-154.804199	227.093506
4830.054868	204.480423	-153.226181	216.748688
4830.057740	203.019287	-152.466385	211.547028
4830.061117	200.564590	-150.946808	206.403839
4830.064446	198.518997	-150.245468	200.851547
4830.067315	196.473404	-149.777908	196.292801
4830.070613	194.544708	-149.076553	191.850967
4830.073955	192.499130	-147.907654	186.473984
4830.077275	190.044434	-146.914078	181.564590
4830.080609	188.524841	-145.686722	178.116318
4830.083520	186.303909	-144.693146	173.674454
4830.086845	184.258331	-143.816467	170.343063
4830.090186	182.271194	-142.822906	164.323212
4830.093518	180.693161	-142.004669	161.751602
4830.096842	178.764481	-140.894196	158.069550
4830.100184	176.660431	-140.192856	153.277039
4830.103515	174.907074	-138.439499	150.354767
4830.106850	172.803040	-138.205719	147.140274
4830.110183	171.166580	-137.387482	144.101105
4830.113560	169.588547	-136.160141	140.419052
4830.116842	167.952072	-134.874329	136.620102
4830.120182	166.140274	-134.932785	133.288727
4830.123537	164.036240	-133.413193	130.483353
4830.126848	162.575104	-132.361191	128.320862
4830.130178	160.821747	-131.133835	124.697250
4830.133509	159.126831	-130.315598	122.417877
4830.136861	157.139679	-129.906479	119.846283
4830.140182	155.386322	-128.620682	117.333130
4830.143509	154.217422	-128.211563	114.235535
4830.146844	152.814728	-126.691994	112.189941
4830.150178	150.418472	-126.224434	109.092331
4830.153508	149.892456	-125.289314	107.046753
4830.157710	146.151962	-123.828178	102.546455
4830.161106	144.573944	-123.419060	100.909988
4830.164454	143.638809	-122.016365	98.630623
4830.167730	141.885437	-121.841026	96.526596
4830.170589	141.008774	-120.555229	94.305664
4830.173930	140.365875	-119.620110	92.844528
4830.177272	138.904739	-119.152550	90.331383
4830.180606	137.151367	-118.217415	89.805367
4830.183512	135.748688	-118.275871	87.526001
4830.186835	134.755127	-116.464050	86.415543
4830.190167	133.586212	-116.814735	84.486847
4830.193507	132.767975	-115.938042	82.616600
4830.196833	132.066620	-115.002914	82.207481
4830.200172	130.839279	-114.886032	80.804794
4830.203504	130.313263	-113.658676	79.226761
4830.206875	128.735245	-113.132668	78.934540
4830.210200	128.033905	-113.249565	77.181175
4830.213503	126.981880	-111.788429	75.603157
4830.216835	126.572769	-111.963760	74.609581
4830.220173	125.462303	-110.677971	73.440674
4830.223513	124.760963	-110.093506	72.973114
4830.226833	123.592056	-109.742844	71.044418
4830.230171	123.475166	-109.976624	70.343071
4830.233503	122.130920	-109.158386	69.466393
4830.236832	121.020462	-108.690819	68.940384
4830.240169	120.377556	-108.515488	67.420807
4830.243507	119.383987	-107.405029	66.544128
4830.246829	119.150208	-107.405029	65.842773
4830.250166	118.448868	-107.288132	64.966103
4830.253496	117.922852	-106.703682	64.673874
4830.257774	116.461723	-105.534782	63.855637
4830.261095	115.526596	-105.826996	62.745178
4830.264426	115.643486	-105.300995	62.569839
4830.267696	115.059036	-105.300995	61.810051
4830.271008	114.007011	-104.950317	61.459381
4830.273928	113.714790	-104.774986	60.641144
4830.277259	113.539452	-104.716537	60.407364
4830.280585	113.188782	-104.658089	60.758034
4830.283959	112.487434	-104.132088	59.822906
4830.286822	111.610756	-103.839859	59.589127
4830.290162	111.727646	-104.132088	58.770897
4830.293496	111.376976	-103.664528	58.654007
4830.296853	111.201637	-103.839859	57.952660
4830.300162	110.558739	-104.073647	57.543541
4830.303497	110.091179	-103.372299	57.426651
4830.306829	109.331390	-103.722961	57.017525
4830.310163	109.097603	-103.722961	57.192871
4830.313493	109.097603	-103.255402	56.199295
4830.316831	108.805382	-103.489182	56.608414
4830.320161	108.454712	-103.430748	56.725304
4830.323490	107.928696	-103.489182	57.251312
4830.326851	108.688492	-103.255402	56.140854
4830.330161	108.045593	-103.313850	56.608414
4830.333493	107.636475	-103.372299	56.608414
4830.336823	107.928696	-103.255402	56.549965
4830.340171	108.045593	-103.781410	56.842194
4830.343489	108.162483	-103.956749	56.959084
4830.346821	108.045593	-104.365875	55.848625
4830.350154	107.928696	-104.599655	57.251312
4830.353528	107.052025	-104.365875	57.777321
4830.358093	107.227356	-105.184105	57.251312
4830.361002	107.636475	-105.359436	58.361771
4830.364364	108.162483	-105.885445	58.069550
4830.367696	108.279373	-106.469902	58.420219
4830.370623	107.870255	-105.826996	59.063118
4830.373935	108.396263	-106.353004	58.712448
4830.377268	108.513153	-106.703682	59.530678
4830.380595	108.746933	-107.112801	59.764465
4830.383934	108.746933	-107.521912	60.290474
4830.386817	109.039162	-107.697258	61.342491
4830.390147	108.630043	-109.099945	61.342491
4830.393485	109.097603	-110.093506	61.634712
4830.396821	109.798950	-109.742844	61.576271
4830.400156	109.915840	-110.210403	61.459381
4830.403488	109.565170	-110.385742	62.745178
4830.406819	110.032730	-111.262413	63.504967
4830.410147	110.266510	-111.671539	63.680305
4830.413508	110.500290	-112.314438	65.199883
4830.416816	111.318527	-113.424896	65.784332
4830.420152	111.376976	-114.067795	66.661018
4830.423482	112.078323	-114.593803	66.485680
4830.426820	112.078323	-115.762711	66.661018
4830.430146	112.662773	-116.580948	69.174164
4830.433528	112.721214	-116.873177	68.940384
4830.436821	113.071892	-117.282295	70.927521
4830.440149	113.773232	-118.217415	71.570427
4830.443484	113.831680	-118.626534	72.271767
4830.446818	114.825256	-119.561653	72.914665
4830.450146	114.708366	-120.496788	74.784912
4830.453474	115.935715	-121.373466	75.603157
4830.456809	116.169495	-121.665688	77.239624
4830.460995	117.338402	-124.354179	79.051430
4830.464347	118.448868	-124.587959	79.928108
4830.467682	118.682648	-125.464638	82.382812
4830.471108	119.500877	-126.925774	83.727058
4830.473917	119.734665	-127.802452	85.129745
4830.477258	120.903572	-129.029800	86.707779
4830.480579	121.312683	-131.075378	88.227348
4830.483917	121.897141	-132.302734	89.513153
4830.486806	123.124489	-133.062531	90.915840
4830.490147	124.001175	-134.114548	93.195206
4830.493475	123.825836	-134.757431	94.714790
4830.496806	125.228523	-135.984787	96.585037
4830.500140	126.280540	-137.445923	98.747513
4830.503469	127.040329	-138.614838	101.202217
4830.506809	127.391006	-140.601990	103.306252
4830.510143	128.852142	-141.303329	104.358276
4830.513490	129.436584	-142.004669	106.754517
4830.516809	130.488602	-144.400940	109.969025
4830.520133	130.897720	-145.511398	111.547043
4830.523472	131.832855	-146.388077	114.118637
4830.526809	132.943298	-147.849213	115.579773
4830.530147	134.112213	-149.544128	119.612503
4830.533478	134.404449	-151.297470	122.184097
4830.536809	136.040924	-152.466385	124.638794
4830.540134	136.157806	-154.511978	127.268845
4830.543507	137.560501	-156.323776	129.606659
4830.546800	138.086487	-158.077133	133.171829
4830.550137	139.547638	-159.830505	135.977203
4830.553469	140.658081	-161.466965	138.548798
4830.556815	141.359436	-163.161896	142.523087
4830.561033	143.814148	-165.967270	149.302750
4830.564339	144.749268	-168.421967	153.452362
4830.567745	145.684387	-169.941544	156.374634
4830.571067	146.677979	-172.162476	160.465805
4830.573931	147.671539	-173.623596	164.030975
4830.577236	148.782013	-175.961411	168.940384
4830.580562	149.600235	-177.305664	172.856216
4830.583893	151.002930	-179.585037	177.707184
4830.586838	151.996490	-181.338394	181.798355
4830.590134	153.632965	-183.909988	186.240219
4830.593461	153.691406	-185.371109	191.032730
4830.596794	155.503204	-186.949142	195.708359
4830.600153	156.789017	-189.403854	201.494446
4830.603463	157.139679	-191.800110	206.111633
4830.606800	158.367035	-193.962585	211.547028
4830.610133	159.126831	-195.657501	217.508484
4830.613464	160.646423	-197.703094	222.242538
4830.616800	161.172409	-199.631775	228.203979
4830.620131	162.049103	-201.502029	233.580933
4830.623466	162.224442	-203.722977	239.542389
4830.626800	162.750443	-206.411453	246.380463
4830.630152	164.094681	-208.515488	252.926361
4830.633469	165.029816	-210.444183	259.296906
4830.636804	164.971359	-212.022202	265.667419
4830.640126	165.964935	-213.191116	273.382233
4830.643472	165.964935	-215.762695	282.032135
4830.646792	166.374054	-218.392746	288.870270
4830.650123	167.367630	-220.613663	295.357666
4830.653462	167.893631	-221.782578	301.962006
4830.656796	167.893631	-222.893036	310.670380
4830.660969	168.127411	-227.393326	326.918152
4830.664330	167.718292	-229.088257	333.464050
4830.667665	167.718292	-230.841599	342.581512
4830.671045	166.958511	-232.536514	351.699005
4830.673950	167.133850	-233.179413	360.699585
4830.677296	166.432495	-235.049667	369.232605
4830.680554	165.731155	-236.627686	378.525421
4830.683876	164.737579	-238.614838	387.526001
4830.686813	163.860901	-239.023956	397.344849
4830.690124	163.568680	-241.186447	406.696106
4830.693456	162.107544	-241.420212	416.982483
4830.696784	160.997086	-242.764465	426.567535
4830.700123	159.769714	-244.108688	436.970764
4830.703455	158.016373	-244.810043	446.848022
4830.706785	156.496796	-245.511368	458.127991
4830.710117	154.568085	-244.634720	468.940369
4830.713456	152.230270	-245.686722	478.583893
4830.716808	149.308014	-246.037399	490.156036
4830.720112	146.327301	-246.329636	500.617767
4830.723451	144.106384	-245.219177	511.313263
4830.726784	141.710114	-244.868484	520.606079
4830.730118	138.612518	-245.160721	532.996521
4830.733475	135.865570	-244.926941	543.808899
4830.736782	131.774399	-243.699585	554.913513
4830.740118	127.858566	-243.290466	565.141479
4830.743454	124.293396	-241.303314	577.064331
4830.746786	120.026886	-240.601990	588.110474
4830.750121	115.935715	-238.439499	598.046204
4830.753450	111.435417	-236.627686	608.800110
4830.756777	106.292229	-235.049667	617.800720
4830.760984	95.596725	-229.438919	638.490417
4830.764333	89.869087	-227.159546	648.484558
4830.767656	83.732323	-224.997055	658.712463
4830.771057	77.770897	-221.782578	668.414429
4830.773919	71.984802	-218.334305	677.765686
4830.777213	64.737587	-214.418457	684.019348
4830.780536	58.308594	-210.385742	693.896606
4830.783875	51.821159	-206.353012	700.091797
4830.786788	44.866165	-201.911148	708.449463
4830.790113	37.092930	-197.469299	717.216248
4830.793448	29.787262	-193.319687	722.417908
4830.796780	21.897139	-188.234940	728.905334
4830.800114	14.416134	-181.981293	735.568115
4830.803447	6.233784	-176.838104	740.535950
4830.806776	-1.247223	-171.052002	746.497375
4830.810104	-10.072472	-165.324371	752.634155
4830.813441	-17.495029	-158.836929	755.673340
4830.816790	-25.618935	-152.349503	758.946289
4830.820106	-34.619514	-145.862061	761.810059
4830.823437	-43.094093	-138.673279	764.673889
4830.826791	-50.633545	-131.659851	767.128601
4830.830119	-58.932785	-125.172417	768.414429
4830.833440	-67.699585	-117.340744	769.641785
4830.836773	-76.232613	-109.567513	769.758667
4830.840107	-84.531845	-102.086494	770.167786
4830.843442	-93.181763	-93.962593	769.700195
4830.846772	-101.364105	-86.773819	766.602600
4830.850105	-109.371124	-78.766808	766.076599
4830.853441	-117.670364	-70.876678	764.031006
4830.856774	-125.677383	-63.103447	761.167175
4830.860974	-141.340729	-46.680305	755.030457
4830.864304	-149.113968	-38.848625	749.711914
4830.867703	-156.361191	-29.848042	745.211609
4830.871033	-163.959091	-22.308594	740.009949
4830.873960	-170.446533	-14.243131	734.632996
4830.877192	-177.343079	-6.762128	727.970215
4830.880525	-184.356506	1.186441	720.664551
4830.883867	-190.960846	8.725892	713.358887
4830.887191	-196.746933	17.200468	706.754517
4830.890100	-202.825256	24.272356	698.805969
4830.893435	-208.202209	31.811806	691.500305
4830.896767	-213.754517	39.409702	683.259521
4830.900103	-219.832840	45.897137	674.025146
4830.903436	-224.917603	52.910580	665.199890
4830.906761	-229.359436	59.281120	654.971985
4830.910099	-233.976624	65.417885	646.614258
4830.913434	-237.600220	72.665108	636.269470
4830.916775	-241.574524	78.392754	626.859741
4830.920094	-245.724152	83.828171	616.748718
4830.923453	-249.172424	89.322029	606.111694
4830.926764	-252.036224	95.458794	596.701965
4830.930097	-254.432495	100.309761	586.357117
4830.933430	-258.056091	105.102280	575.544739
4830.936764	-260.569244	110.187027	564.732361
4830.940093	-261.796600	114.395096	554.153748
4830.943426	-264.251312	119.362938	543.049133
4830.946767	-265.770905	123.103455	533.464111
4830.950098	-267.348907	127.311516	522.417908
4830.953424	-268.167145	130.876694	511.780792
4830.956769	-270.037415	135.084747	501.669769
4830.961003	-271.615417	141.279953	481.038574
4830.964298	-270.972534	144.728241	470.459961
4830.967704	-271.907654	147.182938	460.056702
4830.971024	-272.433655	150.105209	448.192291
4830.974275	-271.790741	152.559906	439.074829
4830.977177	-271.673889	154.722397	428.729980
4830.980521	-271.381653	156.475754	419.963196
4830.983847	-270.738770	158.404449	409.969025
4830.987181	-269.686737	160.216263	399.098175
4830.990088	-268.634705	162.086502	390.798981
4830.993424	-267.290466	163.138519	380.337219
4830.996759	-265.712433	164.190536	370.635284
4831.000091	-265.244873	165.242569	362.686737
4831.003452	-264.075989	166.469910	353.218567
4831.006749	-261.562836	167.054367	345.737579
4831.010093	-261.036804	167.521927	336.386322
4831.013440	-259.341888	167.697266	327.970184
4831.016774	-257.588531	168.281723	318.911163
4831.020087	-255.250732	169.275284	310.261230
4831.023423	-253.848053	168.983063	304.182922
4831.026758	-251.510223	168.807724	295.416138
4831.030088	-249.464630	169.216843	287.584442
4831.033424	-247.535919	168.164825	280.571014
4831.036754	-246.191711	168.398605	273.908234
4831.040084	-243.970764	167.697266	267.479248
4831.043422	-241.632965	168.106369	259.238464
4831.046756	-239.412048	167.229691	252.225006
4831.050085	-237.249542	167.112808	245.503815
4831.053434	-234.970215	166.177689	239.133270
4831.056752	-233.216827	165.651672	234.165405
4831.060088	-230.294556	164.541199	227.911758
4831.064336	-226.437164	163.080078	215.404434
4831.067701	-223.748688	162.612518	210.904144
4831.071034	-222.053772	161.618942	205.118057
4831.074273	-219.189941	160.508484	199.448868
4831.077176	-217.553482	159.514908	195.474564
4831.080513	-215.215668	158.229111	190.214478
4831.083841	-212.468735	157.995331	185.363525
4831.087170	-210.598480	157.060196	180.103439
4831.090084	-208.728226	156.066635	175.720047
4831.093412	-206.331955	154.839279	171.336639
4831.096767	-203.585037	154.137939	167.654587
4831.100077	-202.357681	152.910583	163.212738
4831.103415	-199.727646	151.449448	158.712448
4831.106742	-197.740494	150.514328	155.147278
4831.110122	-195.694916	149.462311	150.179428
4831.113415	-193.123306	148.001175	147.081818
4831.116740	-191.253052	147.650497	143.165985
4831.120087	-189.207474	146.423141	139.951477
4831.123411	-186.986557	145.254242	136.386322
4831.126743	-184.882507	144.260681	132.470490
4831.130076	-183.421387	143.793121	129.022217
4831.133412	-181.317368	142.273529	126.041489
4831.136742	-179.505554	141.163071	123.762131
4831.140100	-177.109299	140.227951	119.787842
4831.143414	-175.472824	139.292816	117.099350
4831.146741	-173.661011	137.714783	113.884857
4831.150073	-172.316772	137.247223	112.073059
4831.153413	-170.504959	135.961426	109.267685
4831.156736	-168.400940	134.792526	106.345413
4831.160076	-166.822906	134.091187	104.066040
4831.164355	-163.783752	132.162476	99.741081
4831.167670	-161.913498	130.350677	97.111038
4831.170994	-160.277039	129.006439	94.481010
4831.174259	-159.049683	128.421982	92.201630
4831.177173	-156.594971	127.837517	90.156052
4831.180493	-155.776733	126.493279	88.519577
4831.183855	-154.315598	125.616600	86.006432
4831.187166	-153.380478	124.272362	84.077736
4831.190073	-151.042664	124.038582	82.382812
4831.193403	-150.049088	123.161888	80.921677
4831.196750	-148.646408	122.051430	79.635887
4831.200073	-147.243713	121.408531	77.181175
4831.203407	-145.782578	120.940971	76.246056
4831.206736	-144.847458	120.005844	75.603157
4831.210069	-143.386322	119.362938	73.265335
4831.213400	-142.158966	118.310928	71.745758
4831.216741	-140.873169	117.901817	71.219757
4831.220067	-139.236694	117.258904	68.531265
4831.223401	-138.710693	116.382233	68.063705
4831.226737	-137.249557	116.206894	66.777908
4831.230069	-136.314423	115.388657	65.901222
4831.233403	-135.087082	114.278198	64.790764
4831.236731	-134.619522	114.511978	63.621857
4831.240089	-133.918182	113.518410	62.628288
4831.243396	-132.573929	113.109291	61.751602
4831.246732	-131.229691	112.057281	59.939804
4831.250069	-130.411453	111.355934	58.654007
4831.253402	-129.826996	111.297493	58.244881
4831.256727	-128.482758	110.888374	57.718880
4831.260070	-127.839859	110.888374	57.017525
4831.264326	-126.261826	109.661011	55.205727
4831.267643	-125.268250	109.251900	54.621269
4831.270957	-124.450027	108.316772	54.445930
4831.274251	-123.456451	108.199883	52.926353
4831.277579	-123.105789	107.440094	52.517242
4831.280491	-122.521332	107.323204	51.815895
4831.283825	-122.112213	106.797195	51.874336
4831.287172	-121.177094	106.797195	49.653419
4831.290508	-120.241959	106.212746	49.945648
4831.293399	-119.189941	106.037407	49.711868
4831.296725	-119.365280	104.985390	48.659851
4831.300062	-118.897705	105.569839	48.075386
4831.303401	-118.488602	105.043839	47.198715
4831.306727	-118.079483	104.634712	47.198715
4831.310062	-117.085907	104.459381	46.789589
4831.313427	-117.378143	105.219170	46.848038
4831.316725	-116.033905	104.400932	46.263588
4831.320064	-116.033905	104.517822	45.562241
4831.323392	-115.800125	104.400932	45.737579
4831.326731	-114.864990	103.874931	44.977791
4831.330060	-114.397430	103.465805	45.737579
4831.333390	-113.988312	103.816483	44.510223
4831.336725	-114.046753	103.407364	45.270012
4831.340055	-113.696091	103.699593	44.042664
4831.343390	-114.105194	103.290474	44.159554
4831.346722	-113.286957	103.348915	44.101105
4831.350056	-113.754517	104.050262	44.568672
4831.353407	-112.760956	103.524254	43.691994
4831.356746	-113.228531	103.758041	42.990646
4831.360058	-112.760956	103.524254	43.399765
4831.364678	-111.942719	103.348915	42.639977
4831.367567	-112.468735	103.816483	43.341324
4831.370938	-112.001175	103.874931	43.458214
4831.374293	-111.942719	104.225601	43.633545
4831.377638	-112.293381	103.699593	43.107536
4831.380500	-111.650497	103.991821	43.516655
4831.383871	-111.825821	104.108711	43.516655
4831.387141	-111.533600	104.225601	44.042664
4831.390491	-110.949142	105.043839	44.101105
4831.393380	-111.884277	104.985390	43.399765
4831.396714	-111.825821	105.219170	43.867325
4831.400070	-111.708939	105.452950	45.445351
4831.403383	-111.708939	106.154297	44.860901
4831.406715	-112.059601	105.862068	44.568672
4831.410045	-111.942719	106.329636	44.977791
4831.413389	-112.176498	106.329636	44.744011
4831.416716	-111.884277	106.680305	45.854469
4831.420049	-112.644058	107.264755	46.146698
4831.423386	-112.702515	107.440094	46.263588
4831.426711	-112.527161	108.842781	46.497368
4831.430049	-112.760956	108.784340	47.257156
4831.433435	-112.936295	109.310341	47.432495
4831.436717	-113.403854	109.836349	47.081818
4831.440046	-113.579193	109.544121	47.490936
4831.443418	-113.520737	110.596146	48.075386
4831.446716	-114.338989	111.005257	48.952072
4831.450046	-114.981873	111.414375	49.127411
4831.453378	-115.040329	112.057281	50.179428
4831.456733	-115.683228	112.466393	50.530098
4831.460046	-116.267685	113.226189	51.465225
4831.464733	-116.326111	114.921097	52.634132
4831.467596	-117.085907	115.388657	53.043243
4831.471042	-118.079483	115.797783	54.329041
4831.474298	-117.787262	116.674461	54.387489
4831.477564	-118.079483	117.726471	54.855057
4831.480476	-118.780823	118.077148	56.666855
4831.483795	-119.949738	119.129158	57.309761
4831.487160	-119.599060	120.590294	58.303329
4831.490472	-120.241959	121.057854	58.537109
4831.493373	-120.709534	121.876099	60.348915
